# time(s)  heave(m)
0.010000000 -1.000070624e+00
0.020000000 -1.000306026e+00
0.030000000 -1.000737549e+00
0.040000000 -1.001365103e+00
0.050000000 -1.002188554e+00
0.060000000 -1.003207726e+00
0.070000000 -1.004422400e+00
0.080000000 -1.005832310e+00
0.090000000 -1.007437153e+00
0.100000000 -1.009236578e+00
0.110000000 -1.011230193e+00
0.120000000 -1.013417564e+00
0.130000000 -1.015798212e+00
0.140000000 -1.018371619e+00
0.150000000 -1.021137221e+00
0.160000000 -1.024094414e+00
0.170000000 -1.027242550e+00
0.180000000 -1.030580941e+00
0.190000000 -1.034108856e+00
0.200000000 -1.037825523e+00
0.210000000 -1.041730128e+00
0.220000000 -1.045821815e+00
0.230000000 -1.050099690e+00
0.240000000 -1.054562814e+00
0.250000000 -1.059210212e+00
0.260000000 -1.064040865e+00
0.270000000 -1.069053716e+00
0.280000000 -1.074247667e+00
0.290000000 -1.079621581e+00
0.300000000 -1.085174283e+00
0.310000000 -1.090904557e+00
0.320000000 -1.096811151e+00
0.330000000 -1.102892770e+00
0.340000000 -1.109148087e+00
0.350000000 -1.115575734e+00
0.360000000 -1.122174305e+00
0.370000000 -1.128942359e+00
0.380000000 -1.135878417e+00
0.390000000 -1.142980966e+00
0.400000000 -1.150248454e+00
0.410000000 -1.157679297e+00
0.420000000 -1.165271872e+00
0.430000000 -1.173024525e+00
0.440000000 -1.180935566e+00
0.450000000 -1.189003271e+00
0.460000000 -1.197225884e+00
0.470000000 -1.205601613e+00
0.480000000 -1.214128638e+00
0.490000000 -1.222805103e+00
0.500000000 -1.231629122e+00
0.510000000 -1.240598778e+00
0.520000000 -1.249712123e+00
0.530000000 -1.258967179e+00
0.540000000 -1.268361938e+00
0.550000000 -1.277894362e+00
0.560000000 -1.287562387e+00
0.570000000 -1.297363918e+00
0.580000000 -1.307296833e+00
0.590000000 -1.317358984e+00
0.600000000 -1.327548195e+00
0.610000000 -1.337862264e+00
0.620000000 -1.348298963e+00
0.630000000 -1.358856042e+00
0.640000000 -1.369531221e+00
0.650000000 -1.380322202e+00
0.660000000 -1.391226658e+00
0.670000000 -1.402242244e+00
0.680000000 -1.413366590e+00
0.690000000 -1.424597305e+00
0.700000000 -1.435931976e+00
0.710000000 -1.447368170e+00
0.720000000 -1.458903435e+00
0.730000000 -1.470535299e+00
0.740000000 -1.482261270e+00
0.750000000 -1.494078839e+00
0.760000000 -1.505985480e+00
0.770000000 -1.517978648e+00
0.780000000 -1.530055783e+00
0.790000000 -1.542214309e+00
0.800000000 -1.554451635e+00
0.810000000 -1.566765155e+00
0.820000000 -1.579152248e+00
0.830000000 -1.591610283e+00
0.840000000 -1.604136612e+00
0.850000000 -1.616728577e+00
0.860000000 -1.629383510e+00
0.870000000 -1.642098730e+00
0.880000000 -1.654871546e+00
0.890000000 -1.667699257e+00
0.900000000 -1.680579155e+00
0.910000000 -1.693508522e+00
0.920000000 -1.706484632e+00
0.930000000 -1.719504754e+00
0.940000000 -1.732566148e+00
0.950000000 -1.745666069e+00
0.960000000 -1.758801768e+00
0.970000000 -1.771970490e+00
0.980000000 -1.785169476e+00
0.990000000 -1.798395965e+00
1.000000000 -1.811647193e+00
1.010000000 -1.824920392e+00
1.020000000 -1.838212796e+00
1.030000000 -1.851521635e+00
1.040000000 -1.864844140e+00
1.050000000 -1.878177543e+00
1.060000000 -1.891519077e+00
1.070000000 -1.904865977e+00
1.080000000 -1.918215478e+00
1.090000000 -1.931564821e+00
1.100000000 -1.944911249e+00
1.110000000 -1.958252010e+00
1.120000000 -1.971584355e+00
1.130000000 -1.984905542e+00
1.140000000 -1.998212835e+00
1.150000000 -2.011503505e+00
1.160000000 -2.024774828e+00
1.170000000 -2.038024091e+00
1.180000000 -2.051248586e+00
1.190000000 -2.064445617e+00
1.200000000 -2.077612496e+00
1.210000000 -2.090746546e+00
1.220000000 -2.103845100e+00
1.230000000 -2.116905502e+00
1.240000000 -2.129925110e+00
1.250000000 -2.142901292e+00
1.260000000 -2.155831430e+00
1.270000000 -2.168712921e+00
1.280000000 -2.181543174e+00
1.290000000 -2.194319614e+00
1.300000000 -2.207039681e+00
1.310000000 -2.219700831e+00
1.320000000 -2.232300535e+00
1.330000000 -2.244836284e+00
1.340000000 -2.257305584e+00
1.350000000 -2.269705959e+00
1.360000000 -2.282034952e+00
1.370000000 -2.294290125e+00
1.380000000 -2.306469059e+00
1.390000000 -2.318569357e+00
1.400000000 -2.330588640e+00
1.410000000 -2.342524551e+00
1.420000000 -2.354374755e+00
1.430000000 -2.366136938e+00
1.440000000 -2.377808809e+00
1.450000000 -2.389388100e+00
1.460000000 -2.400872565e+00
1.470000000 -2.412259985e+00
1.480000000 -2.423548161e+00
1.490000000 -2.434734923e+00
1.500000000 -2.445818123e+00
1.510000000 -2.456795640e+00
1.520000000 -2.467665378e+00
1.530000000 -2.478425269e+00
1.540000000 -2.489073271e+00
1.550000000 -2.499607368e+00
1.560000000 -2.510025574e+00
1.570000000 -2.520325929e+00
1.580000000 -2.530506503e+00
1.590000000 -2.540565393e+00
1.600000000 -2.550500726e+00
1.610000000 -2.560310659e+00
1.620000000 -2.569993378e+00
1.630000000 -2.579547099e+00
1.640000000 -2.588970070e+00
1.650000000 -2.598260568e+00
1.660000000 -2.607416903e+00
1.670000000 -2.616437414e+00
1.680000000 -2.625320475e+00
1.690000000 -2.634064488e+00
1.700000000 -2.642667891e+00
1.710000000 -2.651129153e+00
1.720000000 -2.659446775e+00
1.730000000 -2.667619294e+00
1.740000000 -2.675645278e+00
1.750000000 -2.683523329e+00
1.760000000 -2.691252083e+00
1.770000000 -2.698830212e+00
1.780000000 -2.706256418e+00
1.790000000 -2.713529442e+00
1.800000000 -2.720648058e+00
1.810000000 -2.727611075e+00
1.820000000 -2.734417337e+00
1.830000000 -2.741065723e+00
1.840000000 -2.747555149e+00
1.850000000 -2.753884565e+00
1.860000000 -2.760052958e+00
1.870000000 -2.766059350e+00
1.880000000 -2.771902801e+00
1.890000000 -2.777582404e+00
1.900000000 -2.783097292e+00
1.910000000 -2.788446632e+00
1.920000000 -2.793629628e+00
1.930000000 -2.798645522e+00
1.940000000 -2.803493592e+00
1.950000000 -2.808173153e+00
1.960000000 -2.812683555e+00
1.970000000 -2.817024189e+00
1.980000000 -2.821194479e+00
1.990000000 -2.825193889e+00
2.000000000 -2.829021919e+00
2.010000000 -2.832678106e+00
2.020000000 -2.836162024e+00
2.030000000 -2.839473286e+00
2.040000000 -2.842611540e+00
2.050000000 -2.845576473e+00
2.060000000 -2.848367808e+00
2.070000000 -2.850985305e+00
2.080000000 -2.853428763e+00
2.090000000 -2.855698016e+00
2.100000000 -2.857792936e+00
2.110000000 -2.859713433e+00
2.120000000 -2.861459452e+00
2.130000000 -2.863030977e+00
2.140000000 -2.864428027e+00
2.150000000 -2.865650660e+00
2.160000000 -2.866698968e+00
2.170000000 -2.867573081e+00
2.180000000 -2.868273165e+00
2.190000000 -2.868799424e+00
2.200000000 -2.869152097e+00
2.210000000 -2.869331458e+00
2.220000000 -2.869337818e+00
2.230000000 -2.869171524e+00
2.240000000 -2.868832959e+00
2.250000000 -2.868322541e+00
2.260000000 -2.867640723e+00
2.270000000 -2.866787994e+00
2.280000000 -2.865764877e+00
2.290000000 -2.864571931e+00
2.300000000 -2.863209748e+00
2.310000000 -2.861678955e+00
2.320000000 -2.859980216e+00
2.330000000 -2.858114224e+00
2.340000000 -2.856081709e+00
2.350000000 -2.853883434e+00
2.360000000 -2.851520195e+00
2.370000000 -2.848992820e+00
2.380000000 -2.846302172e+00
2.390000000 -2.843449146e+00
2.400000000 -2.840434667e+00
2.410000000 -2.837259694e+00
2.420000000 -2.833925218e+00
2.430000000 -2.830432260e+00
2.440000000 -2.826781874e+00
2.450000000 -2.822975142e+00
2.460000000 -2.819013180e+00
2.470000000 -2.814897132e+00
2.480000000 -2.810628171e+00
2.490000000 -2.806207503e+00
2.500000000 -2.801636361e+00
2.510000000 -2.796916006e+00
2.520000000 -2.792047731e+00
2.530000000 -2.787032853e+00
2.540000000 -2.781872720e+00
2.550000000 -2.776568707e+00
2.560000000 -2.771122216e+00
2.570000000 -2.765534675e+00
2.580000000 -2.759807540e+00
2.590000000 -2.753942292e+00
2.600000000 -2.747940438e+00
2.610000000 -2.741803512e+00
2.620000000 -2.735533069e+00
2.630000000 -2.729130693e+00
2.640000000 -2.722597990e+00
2.650000000 -2.715936590e+00
2.660000000 -2.709148147e+00
2.670000000 -2.702234336e+00
2.680000000 -2.695196858e+00
2.690000000 -2.688037433e+00
2.700000000 -2.680757804e+00
2.710000000 -2.673359737e+00
2.720000000 -2.665845015e+00
2.730000000 -2.658215445e+00
2.740000000 -2.650472853e+00
2.750000000 -2.642619084e+00
2.760000000 -2.634656003e+00
2.770000000 -2.626585492e+00
2.780000000 -2.618409455e+00
2.790000000 -2.610129809e+00
2.800000000 -2.601748492e+00
2.810000000 -2.593267458e+00
2.820000000 -2.584688676e+00
2.830000000 -2.576014134e+00
2.840000000 -2.567245832e+00
2.850000000 -2.558385789e+00
2.860000000 -2.549436034e+00
2.870000000 -2.540398615e+00
2.880000000 -2.531275590e+00
2.890000000 -2.522069033e+00
2.900000000 -2.512781028e+00
2.910000000 -2.503413673e+00
2.920000000 -2.493969078e+00
2.930000000 -2.484449363e+00
2.940000000 -2.474856660e+00
2.950000000 -2.465193112e+00
2.960000000 -2.455460869e+00
2.970000000 -2.445662095e+00
2.980000000 -2.435798958e+00
2.990000000 -2.425873637e+00
3.000000000 -2.415888320e+00
3.010000000 -2.405845200e+00
3.020000000 -2.395746478e+00
3.030000000 -2.385594363e+00
3.040000000 -2.375391068e+00
3.050000000 -2.365138813e+00
3.060000000 -2.354839821e+00
3.070000000 -2.344496322e+00
3.080000000 -2.334110549e+00
3.090000000 -2.323684739e+00
3.100000000 -2.313221130e+00
3.110000000 -2.302721967e+00
3.120000000 -2.292189493e+00
3.130000000 -2.281625955e+00
3.140000000 -2.271033600e+00
3.150000000 -2.260414677e+00
3.160000000 -2.249771434e+00
3.170000000 -2.239106120e+00
3.180000000 -2.228420982e+00
3.190000000 -2.217718267e+00
3.200000000 -2.207000219e+00
3.210000000 -2.196269081e+00
3.220000000 -2.185527094e+00
3.230000000 -2.174776493e+00
3.240000000 -2.164019514e+00
3.250000000 -2.153258386e+00
3.260000000 -2.142495333e+00
3.270000000 -2.131732576e+00
3.280000000 -2.120972329e+00
3.290000000 -2.110216802e+00
3.300000000 -2.099468198e+00
3.310000000 -2.088728712e+00
3.320000000 -2.078000534e+00
3.330000000 -2.067285844e+00
3.340000000 -2.056586816e+00
3.350000000 -2.045905614e+00
3.360000000 -2.035244395e+00
3.370000000 -2.024605304e+00
3.380000000 -2.013990478e+00
3.390000000 -2.003402044e+00
3.400000000 -1.992842117e+00
3.410000000 -1.982312802e+00
3.420000000 -1.971816191e+00
3.430000000 -1.961354367e+00
3.440000000 -1.950929398e+00
3.450000000 -1.940543339e+00
3.460000000 -1.930198235e+00
3.470000000 -1.919896114e+00
3.480000000 -1.909638993e+00
3.490000000 -1.899428872e+00
3.500000000 -1.889267738e+00
3.510000000 -1.879157562e+00
3.520000000 -1.869100300e+00
3.530000000 -1.859097893e+00
3.540000000 -1.849152264e+00
3.550000000 -1.839265321e+00
3.560000000 -1.829438955e+00
3.570000000 -1.819675037e+00
3.580000000 -1.809975425e+00
3.590000000 -1.800341954e+00
3.600000000 -1.790776445e+00
3.610000000 -1.781280698e+00
3.620000000 -1.771856494e+00
3.630000000 -1.762505596e+00
3.640000000 -1.753229745e+00
3.650000000 -1.744030664e+00
3.660000000 -1.734910056e+00
3.670000000 -1.725869603e+00
3.680000000 -1.716910963e+00
3.690000000 -1.708035779e+00
3.700000000 -1.699245666e+00
3.710000000 -1.690542221e+00
3.720000000 -1.681927019e+00
3.730000000 -1.673401611e+00
3.740000000 -1.664967527e+00
3.750000000 -1.656626272e+00
3.760000000 -1.648379330e+00
3.770000000 -1.640228161e+00
3.780000000 -1.632174200e+00
3.790000000 -1.624218860e+00
3.800000000 -1.616363529e+00
3.810000000 -1.608609571e+00
3.820000000 -1.600958325e+00
3.830000000 -1.593411105e+00
3.840000000 -1.585969200e+00
3.850000000 -1.578633875e+00
3.860000000 -1.571406368e+00
3.870000000 -1.564287893e+00
3.880000000 -1.557279637e+00
3.890000000 -1.550382760e+00
3.900000000 -1.543598398e+00
3.910000000 -1.536927659e+00
3.920000000 -1.530371626e+00
3.930000000 -1.523931354e+00
3.940000000 -1.517607872e+00
3.950000000 -1.511402182e+00
3.960000000 -1.505315257e+00
3.970000000 -1.499348045e+00
3.980000000 -1.493501466e+00
3.990000000 -1.487776413e+00
4.000000000 -1.482173749e+00
4.010000000 -1.476694313e+00
4.020000000 -1.471338912e+00
4.030000000 -1.466108327e+00
4.040000000 -1.461003313e+00
4.050000000 -1.456024594e+00
4.060000000 -1.451172866e+00
4.070000000 -1.446448799e+00
4.080000000 -1.441853031e+00
4.090000000 -1.437386174e+00
4.100000000 -1.433048813e+00
4.110000000 -1.428841500e+00
4.120000000 -1.424764762e+00
4.130000000 -1.420819097e+00
4.140000000 -1.417004973e+00
4.150000000 -1.413322831e+00
4.160000000 -1.409773081e+00
4.170000000 -1.406356106e+00
4.180000000 -1.403072261e+00
4.190000000 -1.399921870e+00
4.200000000 -1.396905230e+00
4.210000000 -1.394022609e+00
4.220000000 -1.391274246e+00
4.230000000 -1.388660351e+00
4.240000000 -1.386181107e+00
4.250000000 -1.383836666e+00
4.260000000 -1.381627154e+00
4.270000000 -1.379552666e+00
4.280000000 -1.377613271e+00
4.290000000 -1.375809007e+00
4.300000000 -1.374139887e+00
4.310000000 -1.372605892e+00
4.320000000 -1.371206977e+00
4.330000000 -1.369943069e+00
4.340000000 -1.368814067e+00
4.350000000 -1.367819840e+00
4.360000000 -1.366960232e+00
4.370000000 -1.366235058e+00
4.380000000 -1.365644106e+00
4.390000000 -1.365187134e+00
4.400000000 -1.364863877e+00
4.410000000 -1.364674038e+00
4.420000000 -1.364617298e+00
4.430000000 -1.364693306e+00
4.440000000 -1.364901687e+00
4.450000000 -1.365242040e+00
4.460000000 -1.365713935e+00
4.470000000 -1.366316917e+00
4.480000000 -1.367050505e+00
4.490000000 -1.367914192e+00
4.500000000 -1.368907444e+00
4.510000000 -1.370029703e+00
4.520000000 -1.371280384e+00
4.530000000 -1.372658877e+00
4.540000000 -1.374164549e+00
4.550000000 -1.375796737e+00
4.560000000 -1.377554760e+00
4.570000000 -1.379437907e+00
4.580000000 -1.381445445e+00
4.590000000 -1.383576617e+00
4.600000000 -1.385830642e+00
4.610000000 -1.388206715e+00
4.620000000 -1.390704008e+00
4.630000000 -1.393321669e+00
4.640000000 -1.396058824e+00
4.650000000 -1.398914576e+00
4.660000000 -1.401888006e+00
4.670000000 -1.404978173e+00
4.680000000 -1.408184112e+00
4.690000000 -1.411504838e+00
4.700000000 -1.414939346e+00
4.710000000 -1.418486607e+00
4.720000000 -1.422145572e+00
4.730000000 -1.425915173e+00
4.740000000 -1.429794320e+00
4.750000000 -1.433781904e+00
4.760000000 -1.437876795e+00
4.770000000 -1.442077845e+00
4.780000000 -1.446383886e+00
4.790000000 -1.450793731e+00
4.800000000 -1.455306176e+00
4.810000000 -1.459919995e+00
4.820000000 -1.464633949e+00
4.830000000 -1.469446777e+00
4.840000000 -1.474357204e+00
4.850000000 -1.479363936e+00
4.860000000 -1.484465662e+00
4.870000000 -1.489661057e+00
4.880000000 -1.494948777e+00
4.890000000 -1.500327464e+00
4.900000000 -1.505795744e+00
4.910000000 -1.511352228e+00
4.920000000 -1.516995514e+00
4.930000000 -1.522724181e+00
4.940000000 -1.528536799e+00
4.950000000 -1.534431922e+00
4.960000000 -1.540408089e+00
4.970000000 -1.546463829e+00
4.980000000 -1.552597657e+00
4.990000000 -1.558808074e+00
5.000000000 -1.565093572e+00
5.010000000 -1.571452629e+00
5.020000000 -1.577883712e+00
5.030000000 -1.584385279e+00
5.040000000 -1.590955774e+00
5.050000000 -1.597593634e+00
5.060000000 -1.604297283e+00
5.070000000 -1.611065138e+00
5.080000000 -1.617895606e+00
5.090000000 -1.624787085e+00
5.100000000 -1.631737964e+00
5.110000000 -1.638746625e+00
5.120000000 -1.645811440e+00
5.130000000 -1.652930777e+00
5.140000000 -1.660102995e+00
5.150000000 -1.667326446e+00
5.160000000 -1.674599476e+00
5.170000000 -1.681920425e+00
5.180000000 -1.689287628e+00
5.190000000 -1.696699415e+00
5.200000000 -1.704154110e+00
5.210000000 -1.711650033e+00
5.220000000 -1.719185501e+00
5.230000000 -1.726758824e+00
5.240000000 -1.734368313e+00
5.250000000 -1.742012272e+00
5.260000000 -1.749689006e+00
5.270000000 -1.757396814e+00
5.280000000 -1.765133996e+00
5.290000000 -1.772898849e+00
5.300000000 -1.780689669e+00
5.310000000 -1.788504752e+00
5.320000000 -1.796342391e+00
5.330000000 -1.804200882e+00
5.340000000 -1.812078520e+00
5.350000000 -1.819973599e+00
5.360000000 -1.827884417e+00
5.370000000 -1.835809271e+00
5.380000000 -1.843746459e+00
5.390000000 -1.851694285e+00
5.400000000 -1.859651050e+00
5.410000000 -1.867615062e+00
5.420000000 -1.875584630e+00
5.430000000 -1.883558067e+00
5.440000000 -1.891533689e+00
5.450000000 -1.899509817e+00
5.460000000 -1.907484776e+00
5.470000000 -1.915456896e+00
5.480000000 -1.923424512e+00
5.490000000 -1.931385964e+00
5.500000000 -1.939339598e+00
5.510000000 -1.947283768e+00
5.520000000 -1.955216830e+00
5.530000000 -1.963137152e+00
5.540000000 -1.971043105e+00
5.550000000 -1.978933070e+00
5.560000000 -1.986805434e+00
5.570000000 -1.994658593e+00
5.580000000 -2.002490951e+00
5.590000000 -2.010300921e+00
5.600000000 -2.018086925e+00
5.610000000 -2.025847394e+00
5.620000000 -2.033580769e+00
5.630000000 -2.041285500e+00
5.640000000 -2.048960048e+00
5.650000000 -2.056602885e+00
5.660000000 -2.064212493e+00
5.670000000 -2.071787364e+00
5.680000000 -2.079326004e+00
5.690000000 -2.086826929e+00
5.700000000 -2.094288667e+00
5.710000000 -2.101709758e+00
5.720000000 -2.109088756e+00
5.730000000 -2.116424225e+00
5.740000000 -2.123714745e+00
5.750000000 -2.130958908e+00
5.760000000 -2.138155319e+00
5.770000000 -2.145302597e+00
5.780000000 -2.152399377e+00
5.790000000 -2.159444305e+00
5.800000000 -2.166436043e+00
5.810000000 -2.173373270e+00
5.820000000 -2.180254677e+00
5.830000000 -2.187078971e+00
5.840000000 -2.193844876e+00
5.850000000 -2.200551130e+00
5.860000000 -2.207196487e+00
5.870000000 -2.213779718e+00
5.880000000 -2.220299611e+00
5.890000000 -2.226754969e+00
5.900000000 -2.233144613e+00
5.910000000 -2.239467380e+00
5.920000000 -2.245722124e+00
5.930000000 -2.251907719e+00
5.940000000 -2.258023054e+00
5.950000000 -2.264067037e+00
5.960000000 -2.270038592e+00
5.970000000 -2.275936664e+00
5.980000000 -2.281760214e+00
5.990000000 -2.287508223e+00
6.000000000 -2.293179690e+00
6.010000000 -2.298773632e+00
6.020000000 -2.304289088e+00
6.030000000 -2.309725111e+00
6.040000000 -2.315080779e+00
6.050000000 -2.320355184e+00
6.060000000 -2.325547442e+00
6.070000000 -2.330656686e+00
6.080000000 -2.335682070e+00
6.090000000 -2.340622767e+00
6.100000000 -2.345477971e+00
6.110000000 -2.350246896e+00
6.120000000 -2.354928775e+00
6.130000000 -2.359522863e+00
6.140000000 -2.364028434e+00
6.150000000 -2.368444785e+00
6.160000000 -2.372771231e+00
6.170000000 -2.377007109e+00
6.180000000 -2.381151777e+00
6.190000000 -2.385204613e+00
6.200000000 -2.389165017e+00
6.210000000 -2.393032410e+00
6.220000000 -2.396806233e+00
6.230000000 -2.400485950e+00
6.240000000 -2.404071044e+00
6.250000000 -2.407561022e+00
6.260000000 -2.410955410e+00
6.270000000 -2.414253756e+00
6.280000000 -2.417455630e+00
6.290000000 -2.420560624e+00
6.300000000 -2.423568349e+00
6.310000000 -2.426478441e+00
6.320000000 -2.429290554e+00
6.330000000 -2.432004366e+00
6.340000000 -2.434619575e+00
6.350000000 -2.437135903e+00
6.360000000 -2.439553090e+00
6.370000000 -2.441870901e+00
6.380000000 -2.444089120e+00
6.390000000 -2.446207554e+00
6.400000000 -2.448226031e+00
6.410000000 -2.450144401e+00
6.420000000 -2.451962533e+00
6.430000000 -2.453680322e+00
6.440000000 -2.455297680e+00
6.450000000 -2.456814543e+00
6.460000000 -2.458230867e+00
6.470000000 -2.459546631e+00
6.480000000 -2.460761833e+00
6.490000000 -2.461876493e+00
6.500000000 -2.462890652e+00
6.510000000 -2.463804374e+00
6.520000000 -2.464617741e+00
6.530000000 -2.465330857e+00
6.540000000 -2.465943847e+00
6.550000000 -2.466456857e+00
6.560000000 -2.466870053e+00
6.570000000 -2.467183622e+00
6.580000000 -2.467397772e+00
6.590000000 -2.467512730e+00
6.600000000 -2.467528743e+00
6.610000000 -2.467446081e+00
6.620000000 -2.467265031e+00
6.630000000 -2.466985900e+00
6.640000000 -2.466609018e+00
6.650000000 -2.466134731e+00
6.660000000 -2.465563406e+00
6.670000000 -2.464895431e+00
6.680000000 -2.464131210e+00
6.690000000 -2.463271168e+00
6.700000000 -2.462315750e+00
6.710000000 -2.461265418e+00
6.720000000 -2.460120653e+00
6.730000000 -2.458881956e+00
6.740000000 -2.457549846e+00
6.750000000 -2.456124858e+00
6.760000000 -2.454607548e+00
6.770000000 -2.452998488e+00
6.780000000 -2.451298268e+00
6.790000000 -2.449507498e+00
6.800000000 -2.447626801e+00
6.810000000 -2.445656822e+00
6.820000000 -2.443598219e+00
6.830000000 -2.441451669e+00
6.840000000 -2.439217866e+00
6.850000000 -2.436897519e+00
6.860000000 -2.434491354e+00
6.870000000 -2.432000113e+00
6.880000000 -2.429424555e+00
